# fwhFoam: acoustic pressure time history
# Observer 2  position (10 0 0)
# 
# time [s]          p' [Pa]
0.1	3.2618088e-10
0.2	2.5145904e-10
0.3	2.1456731e-10
0.4	2.027204e-10
0.5	1.9658285e-10
0.6	1.9444422e-10
0.7	1.9518583e-10
0.8	1.9748884e-10
0.9	2.0069172e-10
1	2.0466154e-10
1.1	2.1063513e-10
1.2	2.1448781e-10
1.3	2.1778368e-10
1.4	2.211211e-10
1.5	2.2420569e-10
1.6	2.2701582e-10
1.7	2.2952664e-10
1.8	2.3172807e-10
1.9	2.3361849e-10
2	2.3520663e-10
2.1	2.3650435e-10
2.2	2.375201e-10
2.3	2.3830579e-10
2.4	2.3886462e-10
2.5	2.3921314e-10
2.6	2.3939064e-10
2.7	2.3940402e-10
2.8	2.3928537e-10
2.9	2.3904094e-10
3	2.3869536e-10
3.1	2.382832e-10
3.2	2.3778905e-10
3.3	2.372414e-10
3.4	2.3664867e-10
3.5	2.3601214e-10
3.6	2.35265e-10
3.7	2.3391044e-10
3.8	2.3314298e-10
3.9	2.3257164e-10
4	2.3193259e-10
4.1	2.3127671e-10
4.2	2.3061819e-10
4.3	2.2996006e-10
4.4	2.2930243e-10
4.5	2.2865691e-10
4.6	2.2802205e-10
4.7	2.274003e-10
4.8	2.2679768e-10
4.9	2.2620904e-10
5	2.2563635e-10
5.1	2.2508259e-10
5.2	2.2455035e-10
5.3	2.2403363e-10
5.4	2.2353791e-10
5.5	2.2305856e-10
5.6	2.2260381e-10
5.7	2.2215018e-10
5.8	2.2171873e-10
5.9	2.213101e-10
6	2.2091617e-10
6.1	2.2053965e-10
6.2	2.201786e-10
6.3	2.1981671e-10
6.4	2.1947955e-10
6.5	2.1915523e-10
6.6	2.1884224e-10
6.7	2.1854077e-10
6.8	2.1824178e-10
6.9	2.1795345e-10
7	2.1766961e-10
7.1	2.1739278e-10
7.2	2.1711679e-10
7.3	2.1684106e-10
7.4	2.1656786e-10
7.5	2.1629321e-10
7.6	2.1601505e-10
7.7	2.1573535e-10
7.8	2.1545244e-10
7.9	2.151642e-10
8	2.1487363e-10
8.1	2.1457954e-10
8.2	2.1428184e-10
8.3	2.1398239e-10
8.4	2.1368177e-10
8.5	2.133813e-10
8.6	2.1307892e-10
8.7	2.1278091e-10
8.8	2.1248533e-10
8.9	2.1219182e-10
9	2.1190465e-10
9.1	2.1162226e-10
9.2	2.1134376e-10
9.3	2.1107102e-10
9.4	2.1080399e-10
9.5	2.1054277e-10
9.6	2.1028467e-10
9.7	2.1003474e-10
9.8	2.0978806e-10
9.9	2.0953333e-10
10	2.0929725e-10
